
ρ,1.184,[kg/m^3],ν,1.5545e-005,[m^2/s]
<入力パラメータ>
巡航速度,7,[m/s]
回転半径,1.65,[m],設計内側半径,0.3,[m]
回転数,140,[rpm]
翼型,DAE51
有効迎角,0,[deg]
進行率,0.289373,[-]
入力パワ,270,[W],Cτ target,0.141331,[-]

<計算環境>
Relaxation_factor,1.2,[-]
分割,JX,51,IX,1300,SX,1.01,DX_0,1e-006

収束判定,CONVERGE_RLX,0.001,CONVERGE_LAG,0.01

<結果>
推力,34.0167,[N],3.47109,[kgf]
有効仕事,238.117,[W]
プロペラ効率,0.882126,[-]
後流移動速度 /V [-],0.0759548

翼素データ
y_p/R[-],Γ/(VR)[-],u/V[-],w/V[-],q/V[-],Re[-],chord/R[-],phi[rad],beta[rad],phi[deg],beta[deg],Cl_opt[-],Cl[-],Cd[-],u - w * tanφ
0.182625,0.00440726,0.0102943,-0.0175924,1.18199,20258.2,0.0229133,1.02505,1.02505,58.7312,58.7312,0.32546,0.323287,0.0284424,0.0392643
0.185044,0.00888636,0.0124965,-0.0210719,1.18641,37975.7,0.0427848,1.0225,1.0225,58.585,58.585,0.350131,0.347728,0.0270141,0.0469976
0.189064,0.0134808,0.0151572,-0.0250084,1.19389,54129.3,0.0606053,1.01655,1.01655,58.2438,58.2438,0.372625,0.370088,0.0253515,0.0555605
0.194671,0.0182114,0.0188393,-0.0301806,1.20454,69236.7,0.0768123,1.00813,1.00813,57.7616,57.7616,0.393662,0.390867,0.0234066,0.066694
0.201841,0.0230253,0.0222285,-0.0343393,1.2185,83338.2,0.0914419,0.9953,0.9953,57.0265,57.0265,0.413298,0.410566,0.0212587,0.0751598
0.210546,0.0279072,0.0271578,-0.0402124,1.23594,96713.7,0.104554,0.981036,0.981036,56.2092,56.2092,0.431924,0.428795,0.0189057,0.0872474
0.220753,0.0326098,0.0291825,-0.0412103,1.25698,108265,0.115165,0.95927,0.95927,54.9621,54.9621,0.450533,0.447592,0.0170559,0.0879542
0.23242,0.0371396,0.0304951,-0.0409009,1.2818,118692,0.12376,0.933902,0.933902,53.5087,53.5087,0.468238,0.464984,0.0154754,0.0857869
0.245502,0.0415186,0.0317379,-0.0402983,1.31054,128223,0.130798,0.90636,0.90636,51.9306,51.9306,0.484422,0.481171,0.014193,0.0831888
0.259948,0.0457694,0.0333223,-0.0399577,1.34333,137083,0.136432,0.877628,0.877628,50.2844,50.2844,0.499468,0.496148,0.0130461,0.0814249
0.275699,0.0498781,0.0350202,-0.0395932,1.38026,145318,0.140761,0.847871,0.847871,48.5794,48.5794,0.51345,0.510048,0.0120157,0.0798974
0.292695,0.0538401,0.0369545,-0.0393528,1.42137,154122,0.144994,0.817654,0.817654,46.8481,46.8481,0.522489,0.519113,0.0112546,0.0789316
0.310867,0.0576343,0.0390657,-0.0391678,1.46667,164149,0.14966,0.787304,0.787304,45.1092,45.1092,0.525138,0.521752,0.010797,0.078383
0.330145,0.0612234,0.0411108,-0.0388103,1.51608,173548,0.153074,0.756954,0.756954,43.3703,43.3703,0.527622,0.524227,0.010372,0.0777738
0.350451,0.0645836,0.0430568,-0.0382912,1.56952,182274,0.155299,0.72692,0.72692,41.6495,41.6495,0.529927,0.526525,0.00998105,0.0771125
0.371707,0.0676986,0.0448733,-0.0376238,1.62682,190301,0.15643,0.697471,0.697471,39.9621,39.9621,0.532048,0.528639,0.00962478,0.076401
0.393828,0.070563,0.0465525,-0.0368386,1.68778,197631,0.156589,0.66884,0.66884,38.3217,38.3217,0.533985,0.53057,0.00930239,0.0756686
0.416727,0.0731985,0.0485231,-0.0362874,1.75217,204839,0.156326,0.64152,0.64152,36.7564,36.7564,0.53447,0.531021,0.0091235,0.0756265
0.440313,0.0755771,0.0505682,-0.0357904,1.81971,211573,0.155472,0.61545,0.61545,35.2627,35.2627,0.534274,0.530825,0.00901887,0.0758742
0.464493,0.0776615,0.052465,-0.0351992,1.89011,217478,0.15386,0.590563,0.590563,33.8368,33.8368,0.534102,0.530654,0.00892712,0.0760615
0.489172,0.0794318,0.0542117,-0.0345356,1.96302,222497,0.151563,0.56692,0.56692,32.4821,32.4821,0.533956,0.530508,0.00884915,0.0761981
0.514253,0.0808744,0.055808,-0.0338182,2.0381,226588,0.148664,0.544551,0.544551,31.2005,31.2005,0.533837,0.530389,0.00878559,0.0762894
0.539636,0.08198,0.0572556,-0.033063,2.115,229725,0.145242,0.523465,0.523465,29.9923,29.9923,0.533746,0.530298,0.00873686,0.0763386
0.565222,0.0827428,0.0585611,-0.0322858,2.19334,231891,0.141375,0.503651,0.503651,28.8571,28.8571,0.533683,0.530235,0.00870322,0.0763523
0.590909,0.0831598,0.0597289,-0.0314979,2.27273,233074,0.137133,0.485082,0.485082,27.7932,27.7932,0.533648,0.5302,0.00868483,0.0763311
0.616596,0.0832307,0.0607685,-0.0307109,2.35279,233276,0.132581,0.467724,0.467724,26.7986,26.7986,0.533642,0.530194,0.0086817,0.0762807
0.642182,0.0829571,0.0616846,-0.0299317,2.43314,232499,0.127776,0.451531,0.451531,25.8708,25.8708,0.533665,0.530217,0.00869377,0.0761998
0.667565,0.0823428,0.0624864,-0.0291676,2.51339,230756,0.122768,0.436456,0.436456,25.0071,25.0071,0.533716,0.530267,0.00872085,0.0760919
0.692646,0.0813936,0.0631785,-0.0284227,2.59316,228062,0.117603,0.422447,0.422447,24.2044,24.2044,0.533794,0.530345,0.00876269,0.0759548
0.717325,0.0801176,0.0637672,-0.0277004,2.67207,224442,0.112318,0.409451,0.409451,23.4598,23.4598,0.533899,0.53045,0.00881892,0.0757886
0.741505,0.0785252,0.0642559,-0.0270024,2.74976,219927,0.106949,0.397415,0.397415,22.7702,22.7702,0.534031,0.530581,0.00888907,0.0755901
0.765092,0.0766302,0.0646493,-0.0263301,2.82586,214557,0.101528,0.386287,0.386287,22.1326,22.1326,0.534187,0.530737,0.0089725,0.0753584
0.78799,0.0744509,0.0649473,-0.0256827,2.90003,208385,0.0960856,0.376018,0.376018,21.5442,21.5442,0.534367,0.530916,0.0090684,0.0750869
0.810111,0.0720156,0.065153,-0.0250605,2.97192,201492,0.0906603,0.36656,0.36656,21.0023,21.0023,0.534568,0.531116,0.00917548,0.074774
0.831367,0.069394,0.0662868,-0.0248446,3.04121,194640,0.0855894,0.358226,0.358226,20.5248,20.5248,0.533195,0.529799,0.00943367,0.0755881
0.851673,0.0665537,0.0678029,-0.0248067,3.10758,187353,0.0806241,0.350761,0.350761,20.0971,20.0971,0.531269,0.527877,0.00975528,0.0768795
0.870951,0.0634609,0.0693765,-0.0248204,3.17074,179362,0.0756466,0.344009,0.344009,19.7102,19.7102,0.529158,0.525771,0.0101111,0.0782685
0.889124,0.0601028,0.0710129,-0.0248864,3.23041,170619,0.0706287,0.337936,0.337936,19.3623,19.3623,0.526848,0.523465,0.010504,0.0797584
0.906119,0.0564727,0.0726309,-0.0249758,3.28632,161087,0.0655472,0.332484,0.332484,19.0499,19.0499,0.524329,0.520954,0.0109363,0.0812551
0.921871,0.0525796,0.0742986,-0.0251126,3.33823,150769,0.0603935,0.327648,0.327648,18.7728,18.7728,0.521603,0.518233,0.0114085,0.0828343
0.936316,0.0484591,0.0770695,-0.025647,3.38591,142503,0.0562721,0.323729,0.323729,18.5483,18.5483,0.508671,0.505325,0.0123641,0.0856749
0.949398,0.0440772,0.0805343,-0.0264304,3.42914,133601,0.0520863,0.320565,0.320565,18.367,18.367,0.493554,0.49026,0.0134919,0.0893097
0.961066,0.0393981,0.0847123,-0.0274637,3.46776,123673,0.0476667,0.318139,0.318139,18.228,18.228,0.476696,0.473395,0.014799,0.0937567
0.971272,0.0343714,0.0897077,-0.0287772,3.50158,112388,0.0429081,0.316461,0.316461,18.1319,18.1319,0.457535,0.454462,0.0163514,0.0991312
0.979978,0.0288751,0.0921028,-0.0292829,3.53044,99250.6,0.0375648,0.314498,0.314498,18.0194,18.0194,0.435456,0.432327,0.0184228,0.101628
0.987148,0.0227671,0.0748987,-0.0236415,3.55414,82663.8,0.0310691,0.307247,0.307247,17.604,17.604,0.412359,0.409274,0.0213696,0.0824
0.992754,0.0166638,0.055667,-0.0174739,3.57276,64417.3,0.024107,0.299954,0.299954,17.1861,17.1861,0.386951,0.384408,0.0240674,0.0610714
0.996774,0.0108508,0.0414239,-0.0129526,3.5862,45117.8,0.016806,0.294643,0.294643,16.8818,16.8818,0.360077,0.357384,0.0263407,0.0453546
0.999193,0.00531386,0.0253558,-0.00791257,3.5944,24037.2,0.00894028,0.289283,0.289283,16.5747,16.5747,0.330722,0.32851,0.0281681,0.0277108

Γ変更回数,,,,,,時間[s]
非粘性,Relaxation,93,Laglange,3,,320.000000
合計,Relaxation,104,Laglange,4,,361.000000

<性能計算・形状設計用データ>
<翼型データ>
DAE51ex.txt
<スペック>
進行率,0.289373
設計有効迎角,0.000000
1.650000,0.300000
0.500000 , 0.000000
0.022913 , 1.025052
0.042785 , 1.022501
0.060605 , 1.016546
0.076812 , 1.008129
0.091442 , 0.995300
0.104554 , 0.981036
0.115165 , 0.959270
0.123760 , 0.933902
0.130798 , 0.906360
0.136432 , 0.877628
0.140761 , 0.847871
0.144994 , 0.817654
0.149660 , 0.787304
0.153074 , 0.756954
0.155299 , 0.726920
0.156430 , 0.697471
0.156589 , 0.668840
0.156326 , 0.641520
0.155472 , 0.615450
0.153860 , 0.590563
0.151563 , 0.566920
0.148664 , 0.544551
0.145242 , 0.523465
0.141375 , 0.503651
0.137133 , 0.485082
0.132581 , 0.467724
0.127776 , 0.451531
0.122768 , 0.436456
0.117603 , 0.422447
0.112318 , 0.409451
0.106949 , 0.397415
0.101528 , 0.386287
0.096086 , 0.376018
0.090660 , 0.366560
0.085589 , 0.358226
0.080624 , 0.350761
0.075647 , 0.344009
0.070629 , 0.337936
0.065547 , 0.332484
0.060394 , 0.327648
0.056272 , 0.323729
0.052086 , 0.320565
0.047667 , 0.318139
0.042908 , 0.316461
0.037565 , 0.314498
0.031069 , 0.307247
0.024107 , 0.299954
0.016806 , 0.294643
0.008940 , 0.289283
<性能計算用データ終わり>