
ρ,1.184,[kg/m^3],ν,1.5545e-005,[m^2/s]
<入力パラメータ>
巡航速度,7,[m/s]
回転半径,1.5,[m],設計内側半径,0.2,[m]
回転数,140,[rpm]
翼型,DAE51
有効迎角,1,[deg]
進行率,0.31831,[-]
入力パワ,280,[W],Cτ target,0.195079,[-]

<計算環境>
Relaxation_factor,1.1,[-]
分割,JX,51,IX,1300,SX,1.01,DX_0,1e-006

収束判定,CONVERGE_RLX,0.001,CONVERGE_LAG,0.01

<結果>
推力,34.7559,[N],3.54652,[kgf]
有効仕事,243.291,[W]
プロペラ効率,0.868662,[-]
後流移動速度 /V [-],0.102755

翼素データ
y_p/R[-],Γ/(VR)[-],u/V[-],w/V[-],q/V[-],Re[-],chord/R[-],phi[rad],beta[rad],phi[deg],beta[deg],Cl_opt[-],Cl[-],Cd[-],u - w * tanφ
0.134188,0.0049216,0.00356916,-0.00939284,1.08491,15327.5,0.0209253,1.18109,1.19855,67.6717,68.6717,0.43358,0.433775,0.0332979,0.0264391
0.13675,0.00997547,0.00621404,-0.016009,1.0879,29871.3,0.040676,1.1808,1.19825,67.6549,68.6549,0.450852,0.451137,0.0315428,0.0451606
0.141009,0.0152088,0.00866241,-0.0216215,1.09314,43900.7,0.0595189,1.17508,1.19253,67.3272,68.3272,0.467514,0.468006,0.029282,0.0604192
0.146947,0.0206432,0.0113379,-0.0271392,1.10073,57557.8,0.077539,1.165,1.18246,66.7498,67.7498,0.483733,0.484508,0.0267813,0.0745055
0.154542,0.0262693,0.0142477,-0.0324149,1.11085,70880.9,0.0946756,1.15067,1.16812,65.9283,66.9283,0.499555,0.500665,0.0240814,0.0868082
0.163764,0.0320545,0.017476,-0.0375095,1.12372,83848.7,0.110787,1.13244,1.14989,64.8839,65.8839,0.514956,0.516441,0.0212306,0.0974917
0.174575,0.0379164,0.0204392,-0.0411448,1.13958,96328.7,0.125608,1.10944,1.12689,63.5663,64.5663,0.529777,0.531741,0.0183014,0.103203
0.186934,0.0438292,0.0239772,-0.045068,1.15867,107423,0.138378,1.08382,1.10128,62.0985,63.0985,0.546722,0.55118,0.0165531,0.109091
0.200791,0.0496223,0.0261884,-0.0458232,1.18121,117744,0.148913,1.05269,1.07014,60.3146,61.3146,0.564218,0.569332,0.01538,0.106573
0.216093,0.0553657,0.0287463,-0.0467336,1.20744,127514,0.157903,1.0198,1.03725,58.4302,59.4302,0.58078,0.586558,0.0143075,0.1048
0.232778,0.0610526,0.0316547,-0.0477695,1.23754,136792,0.165408,0.985649,1.0031,56.4735,57.4735,0.596509,0.602936,0.0133189,0.103754
0.25078,0.0666568,0.0351912,-0.0492902,1.27165,145594,0.171459,0.951099,0.968552,54.494,55.494,0.611429,0.618487,0.0124046,0.104278
0.27003,0.0719934,0.0368804,-0.0479723,1.30984,156445,0.177044,0.913436,0.93089,52.336,53.336,0.620903,0.621669,0.0116905,0.0990301
0.29045,0.0773477,0.0409877,-0.0495633,1.35214,167244,0.18327,0.878659,0.896113,50.3435,51.3435,0.62426,0.624778,0.0113519,0.100779
0.31196,0.0824846,0.0445899,-0.050199,1.3985,177443,0.188008,0.843445,0.860898,48.3258,49.3258,0.627431,0.627975,0.0110373,0.100983
0.334475,0.0873688,0.0481861,-0.0505938,1.44882,187053,0.191312,0.808825,0.826278,46.3423,47.3423,0.630419,0.630986,0.0107432,0.101208
0.357907,0.0919526,0.0517156,-0.0507429,1.50294,195997,0.193246,0.775076,0.79253,44.4086,45.4086,0.6332,0.633788,0.0104712,0.101422
0.382162,0.0961937,0.055139,-0.0506667,1.56066,204785,0.194317,0.742436,0.759889,42.5385,43.5385,0.634393,0.634567,0.0102645,0.101629
0.407146,0.100057,0.0584504,-0.0504124,1.62171,213037,0.194539,0.711108,0.728561,40.7435,41.7435,0.634304,0.634487,0.0101257,0.101878
0.432759,0.103515,0.0617038,-0.0500675,1.68581,220426,0.193634,0.681279,0.698732,39.0344,40.0344,0.634224,0.634409,0.0100014,0.102297
0.458901,0.106527,0.0648002,-0.0495837,1.75264,226865,0.191692,0.652963,0.670416,37.412,38.412,0.634155,0.63434,0.00989308,0.102726
0.485468,0.109058,0.0676639,-0.0489408,1.82183,232276,0.188809,0.62616,0.643614,35.8764,36.8764,0.634097,0.634282,0.00980208,0.10306
0.512356,0.111083,0.0702792,-0.0481641,1.89304,236606,0.185094,0.600887,0.61834,34.4283,35.4283,0.63405,0.634235,0.00972928,0.103293
0.539457,0.112584,0.0726419,-0.0472817,1.96589,239817,0.180655,0.577136,0.594589,33.0675,34.0675,0.634015,0.634201,0.00967529,0.103426
0.566667,0.113552,0.0747539,-0.0463196,2.03999,241887,0.175595,0.554882,0.572335,31.7924,32.7924,0.633993,0.634179,0.0096405,0.103465
0.593876,0.113981,0.0766212,-0.0453011,2.11495,242804,0.170014,0.534083,0.551537,30.6007,31.6007,0.633983,0.634169,0.00962508,0.103413
0.620978,0.113871,0.0782523,-0.0442459,2.19039,242569,0.164,0.51469,0.532144,29.4896,30.4896,0.633986,0.634172,0.00962903,0.103275
0.647865,0.113228,0.0796575,-0.0431709,2.26591,241193,0.157634,0.496645,0.514098,28.4556,29.4556,0.634001,0.634187,0.00965217,0.103054
0.674432,0.11206,0.0808485,-0.0420901,2.34114,238694,0.150989,0.479885,0.497338,27.4954,28.4954,0.634028,0.634213,0.00969417,0.102755
0.700574,0.11038,0.0818378,-0.0410152,2.41569,235103,0.144127,0.464346,0.481799,26.6051,27.6051,0.634066,0.634252,0.00975455,0.102381
0.726187,0.108208,0.0826392,-0.0399559,2.4892,230457,0.137107,0.449966,0.467419,25.7811,26.7811,0.634116,0.634302,0.00983267,0.101938
0.751171,0.105564,0.0832702,-0.0389218,2.56131,224805,0.129979,0.436684,0.454137,25.0201,26.0201,0.634177,0.634363,0.00992773,0.101436
0.775427,0.102478,0.0837767,-0.0379336,2.63166,218209,0.122792,0.424453,0.441906,24.3193,25.3193,0.634248,0.634434,0.0100387,0.10092
0.798858,0.0989884,0.0843558,-0.0370753,2.69993,210753,0.115597,0.413289,0.430742,23.6797,24.6797,0.634329,0.63451,0.0101641,0.100615
0.821374,0.0951198,0.0850743,-0.036366,2.76579,202491,0.108419,0.403152,0.420605,23.0989,24.0989,0.634418,0.634591,0.0103031,0.100585
0.842884,0.0908844,0.0858629,-0.0357664,2.82893,193925,0.101578,0.393954,0.411407,22.5719,23.5719,0.632556,0.633116,0.0105338,0.10073
0.863304,0.086295,0.0867093,-0.0352645,2.88906,184953,0.0948594,0.385634,0.403087,22.0952,23.0952,0.629766,0.630309,0.0108071,0.101025
0.882553,0.0813671,0.087634,-0.0348631,2.94589,175236,0.0881396,0.378152,0.395605,21.6665,22.6665,0.626745,0.627268,0.011105,0.101484
0.900556,0.076118,0.0888092,-0.0346243,2.99917,164791,0.0814105,0.371525,0.388978,21.2868,22.2868,0.623498,0.623998,0.0114278,0.102299
0.917241,0.0705061,0.0873299,-0.0334283,3.04866,153387,0.0746086,0.364688,0.382141,20.8951,21.8951,0.619952,0.620965,0.0117886,0.100092
0.932542,0.0649763,0.0961849,-0.0362128,3.09414,143063,0.0691761,0.362142,0.379595,20.7492,21.7492,0.60714,0.613558,0.0126614,0.109904
0.9464,0.0588145,0.0971039,-0.0360234,3.13539,133255,0.0635322,0.357475,0.374928,20.4818,21.4818,0.590513,0.596251,0.0136895,0.110559
0.958758,0.0523118,0.100228,-0.0367029,3.17223,122436,0.0576419,0.35419,0.371643,20.2936,21.2936,0.572171,0.577192,0.0148587,0.1138
0.96957,0.0454217,0.104435,-0.0378168,3.20451,110363,0.0513835,0.351866,0.369319,20.1604,21.1604,0.551705,0.55599,0.0162137,0.118319
0.978791,0.0379493,0.0996099,-0.0357302,3.23204,96421.5,0.0443173,0.347153,0.364606,19.8904,20.8904,0.529887,0.53169,0.0182789,0.112537
0.986386,0.030182,0.0913275,-0.0325078,3.25473,79757.6,0.0363588,0.341929,0.359382,19.5911,20.5911,0.510097,0.511215,0.0221505,0.102897
0.992324,0.0222984,0.0761859,-0.0269576,3.27254,61583.1,0.027896,0.335089,0.352543,19.1992,20.1992,0.488513,0.489149,0.0259876,0.0855731
0.996583,0.0145699,0.0580439,-0.0204528,3.28543,42253.8,0.019051,0.327884,0.345338,18.7864,19.7864,0.465558,0.46582,0.0295583,0.0650012
0.999145,0.0071304,0.0344142,-0.0120997,3.29347,21820.9,0.00981216,0.319488,0.336941,18.3053,19.3053,0.441292,0.441438,0.0324646,0.0384171

Γ変更回数,,,,,,時間[s]
非粘性,Relaxation,99,Laglange,3,,339.000000
合計,Relaxation,130,Laglange,5,,449.000000

<性能計算・形状設計用データ>
<翼型データ>
FORTEST.txt
<スペック>
進行率,0.318310
設計有効迎角,0.017453
1.500000,0.200000
0.500000 , 0.000000
0.020925 , 1.198548
0.040676 , 1.198253
0.059519 , 1.192534
0.077539 , 1.182457
0.094676 , 1.168119
0.110787 , 1.149891
0.125608 , 1.126895
0.138378 , 1.101277
0.148913 , 1.070142
0.157903 , 1.037253
0.165408 , 1.003102
0.171459 , 0.968552
0.177044 , 0.930890
0.183270 , 0.896113
0.188008 , 0.860898
0.191312 , 0.826278
0.193246 , 0.792530
0.194317 , 0.759889
0.194539 , 0.728561
0.193634 , 0.698732
0.191692 , 0.670416
0.188809 , 0.643614
0.185094 , 0.618340
0.180655 , 0.594589
0.175595 , 0.572335
0.170014 , 0.551537
0.164000 , 0.532144
0.157634 , 0.514098
0.150989 , 0.497338
0.144127 , 0.481799
0.137107 , 0.467419
0.129979 , 0.454137
0.122792 , 0.441906
0.115597 , 0.430742
0.108419 , 0.420605
0.101578 , 0.411407
0.094859 , 0.403087
0.088140 , 0.395605
0.081411 , 0.388978
0.074609 , 0.382141
0.069176 , 0.379595
0.063532 , 0.374928
0.057642 , 0.371643
0.051384 , 0.369319
0.044317 , 0.364606
0.036359 , 0.359382
0.027896 , 0.352543
0.019051 , 0.345338
0.009812 , 0.336941
<性能計算用データ終わり>